# energy, Re[S], Im[S], Im[G], Re[Smpa], Im[Smpa], Im[Gmpa]
-1.000000019999999950e+02 2.706641999999999992e+00 1.612354000000000065e+00 1.528119999999999999e-04 2.089596024511247485e+00 1.330307674031775633e+00 1.276190099889912819e-04
-9.990000200000000063e+01 2.705391999999999797e+00 1.613161999999999985e+00 1.531899999999999885e-04 2.090469608926217582e+00 1.331350167536834661e+00 1.279673276173835426e-04
-9.980000200000000632e+01 2.704661999999999900e+00 1.615258000000000083e+00 1.536900000000000007e-04 2.091343521279494411e+00 1.332389185104704055e+00 1.283164239272404619e-04
-9.970000199999999779e+01 2.705052999999999930e+00 1.617844999999999978e+00 1.542360000000000053e-04 2.092217729573741636e+00 1.333424694823871270e+00 1.286662984869001180e-04
-9.960000200000000348e+01 2.706812000000000218e+00 1.620433000000000012e+00 1.547789999999999897e-04 2.093092201307586997e+00 1.334456664732256215e+00 1.290169508494313632e-04
-9.950000199999999495e+01 2.709547999999999845e+00 1.621833999999999998e+00 1.552079999999999953e-04 2.093966903470380281e+00 1.335485062820571223e+00 1.293683805528441592e-04
-9.940000200000000063e+01 2.711898000000000142e+00 1.622770000000000046e+00 1.555949999999999900e-04 2.094841802536898001e+00 1.336509857035757420e+00 1.297205871203099684e-04
-9.930000200000000632e+01 2.714630999999999794e+00 1.623680000000000012e+00 1.559789999999999918e-04 2.095716864462014328e+00 1.337531015284516123e+00 1.300735700603948845e-04
-9.920000199999999779e+01 2.717605999999999966e+00 1.624414000000000025e+00 1.563459999999999969e-04 2.096592054675388006e+00 1.338548505436909508e+00 1.304273288673025750e-04
-9.910000200000000348e+01 2.721394000000000091e+00 1.624848999999999988e+00 1.566840000000000062e-04 2.097467338076048016e+00 1.339562295330066100e+00 1.307818630211311014e-04
-9.900000199999999495e+01 2.725210999999999828e+00 1.624060000000000059e+00 1.569040000000000007e-04 2.098342679027033419e+00 1.340572352771949305e+00 1.311371719881394978e-04
-9.890000200000000063e+01 2.728544999999999998e+00 1.623046999999999906e+00 1.571049999999999942e-04 2.099218041349955044e+00 1.341578645545235204e+00 1.314932552210286876e-04
-9.880000200000000632e+01 2.731904000000000110e+00 1.621634999999999938e+00 1.572669999999999971e-04 2.100093388319543841e+00 1.342581141411271162e+00 1.318501121592345160e-04
-9.870000199999999779e+01 2.734534000000000020e+00 1.620198000000000027e+00 1.574289999999999999e-04 2.100968682658194808e+00 1.343579808114126806e+00 1.322077422292334680e-04
-9.860000200000000348e+01 2.737115000000000187e+00 1.619191999999999965e+00 1.576340000000000022e-04 2.101843886530458505e+00 1.344574613384738271e+00 1.325661448448619661e-04
-9.850000199999999495e+01 2.740372999999999948e+00 1.618592000000000031e+00 1.578770000000000065e-04 2.102718961537522802e+00 1.345565524945144809e+00 1.329253194076494100e-04
-9.840000200000000063e+01 2.744546000000000152e+00 1.617372000000000032e+00 1.580569999999999946e-04 2.103593868711685744e+00 1.346552510512815992e+00 1.332852653071639015e-04
-9.830000200000000632e+01 2.748216000000000214e+00 1.614795999999999898e+00 1.581060000000000072e-04 2.104468568510760917e+00 1.347535537805104155e+00 1.336459819213760758e-04
-9.820000199999999779e+01 2.751469999999999860e+00 1.612975000000000048e+00 1.582309999999999967e-04 2.105343020812548538e+00 1.348514574543735023e+00 1.340074686170304133e-04
-9.810000200000000348e+01 2.756024000000000029e+00 1.610365999999999964e+00 1.582739999999999961e-04 2.106217184909165319e+00 1.349489588459464429e+00 1.343697247500391038e-04
-9.800000199999999495e+01 2.759066999999999936e+00 1.605995000000000061e+00 1.581490000000000066e-04 2.107091019501482698e+00 1.350460547296792768e+00 1.347327496658858026e-04
-9.790000200000000063e+01 2.760898000000000074e+00 1.602641999999999900e+00 1.581270000000000126e-04 2.107964482693447827e+00 1.351427418818802906e+00 1.350965427000477381e-04
-9.780000200000000632e+01 2.762935999999999837e+00 1.599930999999999992e+00 1.581669999999999918e-04 2.108837531986421432e+00 1.352390170812085124e+00 1.354611031784318860e-04
-9.770000199999999779e+01 2.765134999999999899e+00 1.597331999999999974e+00 1.582180000000000088e-04 2.109710124273536103e+00 1.353348771091781977e+00 1.358264304178286540e-04
-9.760000200000000348e+01 2.767612000000000183e+00 1.594918999999999976e+00 1.582859999999999953e-04 2.110582215833967545e+00 1.354303187506728179e+00 1.361925237263808530e-04
-9.750000199999999495e+01 2.770461000000000062e+00 1.592403000000000013e+00 1.583420000000000097e-04 2.111453762327249351e+00 1.355253387944711285e+00 1.365593824040714532e-04
-9.740000200000000063e+01 2.773858999999999853e+00 1.589561999999999919e+00 1.583649999999999923e-04 2.112324718787537137e+00 1.356199340337838954e+00 1.369270057432274391e-04
-9.730000200000000632e+01 2.777414999999999967e+00 1.585685999999999929e+00 1.582839999999999909e-04 2.113195039617882465e+00 1.357141012667988811e+00 1.372953930290395227e-04
-9.720000199999999779e+01 2.780310000000000059e+00 1.580829000000000040e+00 1.581060000000000072e-04 2.114064678584486323e+00 1.358078372972418180e+00 1.376645435401035122e-04
-9.710000200000000348e+01 2.780962000000000156e+00 1.576292000000000026e+00 1.579659999999999983e-04 2.114933588810935738e+00 1.359011389349467969e+00 1.380344565489787846e-04
-9.700000199999999495e+01 2.782919000000000143e+00 1.574060999999999932e+00 1.580519999999999972e-04 2.115801722772443050e+00 1.359940029964355368e+00 1.384051313227629672e-04
-9.690000200000000063e+01 2.786051000000000055e+00 1.570624000000000020e+00 1.580139999999999952e-04 2.116669032290052321e+00 1.360864263055129975e+00 1.387765671236897125e-04
-9.680000200000000632e+01 2.789125999999999994e+00 1.566870999999999903e+00 1.579440000000000043e-04 2.117535468524881281e+00 1.361784056938713405e+00 1.391487632097432780e-04
-9.670000199999999779e+01 2.793124000000000162e+00 1.562168000000000001e+00 1.577740000000000110e-04 2.118400981972305530e+00 1.362699380017065032e+00 1.395217188352932997e-04
-9.660000200000000348e+01 2.795542999999999889e+00 1.555789000000000089e+00 1.574380000000000061e-04 2.119265522456174722e+00 1.363610200783494264e+00 1.398954332517524145e-04
-9.650000199999999495e+01 2.797527999999999793e+00 1.550281000000000020e+00 1.571909999999999931e-04 2.120129039123010983e+00 1.364516487829060765e+00 1.402699057082514478e-04
-9.640000200000000063e+01 2.799380000000000202e+00 1.543898999999999910e+00 1.568539999999999995e-04 2.120991480436194010e+00 1.365418209849119435e+00 1.406451354523373951e-04
-9.630000200000000632e+01 2.799514999999999976e+00 1.537468999999999975e+00 1.565159999999999902e-04 2.121852794170160372e+00 1.366315335649993301e+00 1.410211217306935494e-04
-9.620000199999999779e+01 2.799319999999999808e+00 1.532820999999999989e+00 1.563590000000000119e-04 2.122712927404618810e+00 1.367207834155757418e+00 1.413978637898799030e-04
-9.610000200000000348e+01 2.800311000000000217e+00 1.528729999999999922e+00 1.562540000000000120e-04 2.123571826518714012e+00 1.368095674415171104e+00 1.417753608770976179e-04
-9.600000199999999495e+01 2.802289000000000030e+00 1.524531000000000081e+00 1.561350000000000086e-04 2.124429437185237468e+00 1.368978825608732741e+00 1.421536122409764282e-04
-9.590000200000000063e+01 2.805447000000000024e+00 1.518404000000000087e+00 1.558119999999999915e-04 2.125285704364847206e+00 1.369857257055852706e+00 1.425326171323828856e-04
-9.580000200000000632e+01 2.806611000000000189e+00 1.511311999999999989e+00 1.553960000000000009e-04 2.126140572300227127e+00 1.370730938222208373e+00 1.429123748052583390e-04
-9.570000199999999779e+01 2.807577000000000211e+00 1.504726000000000008e+00 1.550300000000000115e-04 2.126993984510368918e+00 1.371599838727158627e+00 1.432928845174729065e-04
-9.560000200000000348e+01 2.808756999999999948e+00 1.498577999999999966e+00 1.547069999999999945e-04 2.127845883784734937e+00 1.372463928351367102e+00 1.436741455317114312e-04
-9.550000199999999495e+01 2.811351999999999851e+00 1.491368999999999945e+00 1.542690000000000099e-04 2.128696212177531244e+00 1.373323177044521337e+00 1.440561571163808774e-04
-9.540000200000000063e+01 2.813296999999999937e+00 1.481235000000000079e+00 1.535270000000000092e-04 2.129544911001937990e+00 1.374177554933212697e+00 1.444389185465448037e-04
-9.530000200000000632e+01 2.813181000000000154e+00 1.470197999999999894e+00 1.526950000000000009e-04 2.130391920824357577e+00 1.375027032328939747e+00 1.448224291048830724e-04
-9.520000199999999779e+01 2.809477999999999920e+00 1.458776000000000073e+00 1.518299999999999880e-04 2.131237181458716989e+00 1.375871579736279493e+00 1.452066880826796116e-04
-9.510000200000000348e+01 2.805114000000000107e+00 1.450932000000000111e+00 1.513350000000000003e-04 2.132080631960736383e+00 1.376711167861178531e+00 1.455916947808358732e-04
-9.500000199999999495e+01 2.802306999999999881e+00 1.442698999999999954e+00 1.507939999999999931e-04 2.132922210622263393e+00 1.377545767619405837e+00 1.459774485109130221e-04
-9.490000200000000063e+01 2.798963999999999785e+00 1.433211999999999930e+00 1.501189999999999903e-04 2.133761854965570137e+00 1.378375350145153888e+00 1.463639485962023421e-04
-9.480000200000000632e+01 2.792558999999999791e+00 1.423683999999999950e+00 1.494470000000000076e-04 2.134599501737747929e+00 1.379199886799777452e+00 1.467511943728232616e-04
-9.470000199999999779e+01 2.786416000000000004e+00 1.417070000000000052e+00 1.490770000000000094e-04 2.135435086905063784e+00 1.380019349180697574e+00 1.471391851908522520e-04
-9.460000200000000348e+01 2.780143999999999949e+00 1.409375000000000044e+00 1.485919999999999895e-04 2.136268545647360462e+00 1.380833709130438791e+00 1.475279204154789124e-04
-9.450000199999999495e+01 2.772285999999999806e+00 1.404471999999999943e+00 1.484040000000000109e-04 2.137099812352537320e+00 1.381642938745850202e+00 1.479173994281960986e-04
-9.440000200000000063e+01 2.767398000000000025e+00 1.401415999999999995e+00 1.484009999999999908e-04 2.137928820610948577e+00 1.382447010387462427e+00 1.483076216280184573e-04
-9.430000200000000632e+01 2.765943000000000040e+00 1.396352999999999955e+00 1.481739999999999945e-04 2.138755503209953446e+00 1.383245896688988452e+00 1.486985864327311838e-04
-9.420000199999999779e+01 2.761985000000000134e+00 1.385591000000000017e+00 1.473479999999999994e-04 2.139579792128451174e+00 1.384039570567016320e+00 1.490902932801736627e-04
-9.410000200000000348e+01 2.755106000000000055e+00 1.377777999999999947e+00 1.468410000000000125e-04 2.140401618531428518e+00 1.384828005230835046e+00 1.494827416295537652e-04
-9.400000199999999495e+01 2.749204999999999899e+00 1.366465000000000041e+00 1.459540000000000056e-04 2.141220912764588036e+00 1.385611174192441730e+00 1.498759309627960268e-04
-9.390000200000000063e+01 2.732864000000000182e+00 1.355558999999999958e+00 1.451389999999999939e-04 2.142037604349005697e+00 1.386389051276685436e+00 1.502698607859218104e-04
-9.380000200000000632e+01 2.717865999999999893e+00 1.354697000000000040e+00 1.453919999999999930e-04 2.142851621975832010e+00 1.387161610631619801e+00 1.506645306304675233e-04
-9.370000199999999779e+01 2.706958000000000197e+00 1.355002000000000040e+00 1.457599999999999868e-04 2.143662893501034006e+00 1.387928826738963117e+00 1.510599400549321632e-04
-9.360000200000000348e+01 2.697677999999999798e+00 1.355266000000000082e+00 1.461190000000000015e-04 2.144471345940197615e+00 1.388690674424777782e+00 1.514560886462646262e-04
-9.350000199999999495e+01 2.689436999999999856e+00 1.355602999999999891e+00 1.464840000000000022e-04 2.145276905463376238e+00 1.389447128870290982e+00 1.518529760213856020e-04
-9.340000200000000063e+01 2.682024000000000186e+00 1.355955999999999939e+00 1.468499999999999916e-04 2.146079497389999702e+00 1.390198165622897442e+00 1.522506018287456532e-04
-9.330000200000000632e+01 2.675872000000000028e+00 1.356200999999999990e+00 1.472020000000000045e-04 2.146879046183836515e+00 1.390943760607322055e+00 1.526489657499206733e-04
-9.320000199999999779e+01 2.671015000000000139e+00 1.354951000000000016e+00 1.473880000000000058e-04 2.147675475448009408e+00 1.391683890136965474e+00 1.530480675012451557e-04
-9.310000200000000348e+01 2.665505000000000013e+00 1.350584999999999924e+00 1.472370000000000135e-04 2.148468707920100584e+00 1.392418530925430886e+00 1.534479068354849284e-04
-9.300000199999999495e+01 2.655314000000000174e+00 1.345223999999999975e+00 1.469909999999999891e-04 2.149258665467282725e+00 1.393147660098200902e+00 1.538484835435465880e-04
-9.290000200000000063e+01 2.642739000000000171e+00 1.344076000000000048e+00 1.472119999999999993e-04 2.150045269081553023e+00 1.393871255204517823e+00 1.542497974562286489e-04
-9.280000200000000632e+01 2.631152999999999853e+00 1.345677000000000012e+00 1.477320000000000011e-04 2.150828438875025839e+00 1.394589294229440668e+00 1.546518484460135401e-04
-9.270000199999999779e+01 2.621375000000000011e+00 1.348587999999999898e+00 1.483920000000000117e-04 2.151608094075312394e+00 1.395301755606053185e+00 1.550546364288969247e-04
-9.260000200000000348e+01 2.612750000000000128e+00 1.351452000000000098e+00 1.490469999999999978e-04 2.152384153020945767e+00 1.396008618227885911e+00 1.554581613662625573e-04
-9.250000199999999495e+01 2.604426999999999826e+00 1.354154999999999998e+00 1.496849999999999873e-04 2.153156533156916908e+00 1.396709861461513213e+00 1.558624232667985834e-04
-9.240000200000000063e+01 2.595823000000000214e+00 1.357186000000000003e+00 1.503630000000000103e-04 2.153925151030302132e+00 1.397405465159316407e+00 1.562674221884542811e-04
-9.230000200000000632e+01 2.587286000000000197e+00 1.361412999999999984e+00 1.511770000000000063e-04 2.154689922285933257e+00 1.398095409672450273e+00 1.566731582404435848e-04
-9.220000199999999779e+01 2.579886000000000124e+00 1.366977000000000109e+00 1.521380000000000128e-04 2.155450761662228487e+00 1.398779675863984551e+00 1.570796315852905688e-04
-9.210000200000000348e+01 2.574472000000000094e+00 1.372435999999999989e+00 1.530860000000000044e-04 2.156207582987043736e+00 1.399458245122236377e+00 1.574868424409205201e-04
-9.200000199999999495e+01 2.569793000000000216e+00 1.377121999999999957e+00 1.539490000000000129e-04 2.156960299173664275e+00 1.400131099374293697e+00 1.578947910827980129e-04
-9.190000200000000063e+01 2.565586000000000144e+00 1.380800999999999945e+00 1.546999999999999927e-04 2.157708822216899414e+00 1.400798221099715413e+00 1.583034778461078621e-04
-9.180000200000000632e+01 2.560745999999999967e+00 1.384055999999999953e+00 1.554089999999999888e-04 2.158453063189255339e+00 1.401459593344438481e+00 1.587129031279873063e-04
-9.170000199999999779e+01 2.555673999999999779e+00 1.387636000000000092e+00 1.561590000000000070e-04 2.159192932237254503e+00 1.402115199734862649e+00 1.591230673898022627e-04
-9.160000200000000348e+01 2.550966999999999985e+00 1.391410000000000036e+00 1.569320000000000079e-04 2.159928338577815410e+00 1.402765024492121704e+00 1.595339711594726971e-04
-9.150000199999999495e+01 2.546053000000000122e+00 1.394686000000000092e+00 1.576519999999999875e-04 2.160659190494802928e+00 1.403409052446581207e+00 1.599456150338505230e-04
-9.140000200000000063e+01 2.540335999999999927e+00 1.398995999999999906e+00 1.584950000000000063e-04 2.161385395335660320e+00 1.404047269052465019e+00 1.603579996811392431e-04
-9.130000200000000632e+01 2.535680000000000156e+00 1.404282999999999948e+00 1.594490000000000111e-04 2.162106859508172718e+00 1.404679660402763375e+00 1.607711258433752537e-04
-9.120000199999999779e+01 2.531816000000000066e+00 1.409559000000000006e+00 1.604020000000000001e-04 2.162823488477378930e+00 1.405306213244246649e+00 1.611849943389490763e-04
-9.110000200000000348e+01 2.528859000000000190e+00 1.414938000000000029e+00 1.613689999999999927e-04 2.163535186762588047e+00 1.405926914992741139e+00 1.615996060651859209e-04
-9.100000199999999495e+01 2.526603999999999850e+00 1.418949999999999934e+00 1.621799999999999956e-04 2.164241857934524838e+00 1.406541753748560275e+00 1.620149620009757438e-04
-9.090000200000000063e+01 2.523249999999999993e+00 1.422870000000000079e+00 1.629880000000000055e-04 2.164943404612652778e+00 1.407150718312163207e+00 1.624310632094577592e-04
-9.080000200000000632e+01 2.520240999999999953e+00 1.427558000000000105e+00 1.638850000000000072e-04 2.165639728462624092e+00 1.407753798199982143e+00 1.628479108407578058e-04
-9.070000199999999779e+01 2.518029999999999990e+00 1.431727999999999890e+00 1.647250000000000060e-04 2.166330730193839038e+00 1.408350983660465516e+00 1.632655061347811976e-04
-9.060000200000000348e+01 2.515442000000000178e+00 1.435802000000000023e+00 1.655569999999999872e-04 2.167016309557216580e+00 1.408942265690315665e+00 1.636838504240611936e-04
-9.050000199999999495e+01 2.513320999999999916e+00 1.439497000000000027e+00 1.663480000000000004e-04 2.167696365343088516e+00 1.409527636050930788e+00 1.641029451366641991e-04
-9.040000200000000063e+01 2.510149000000000186e+00 1.442566000000000015e+00 1.670719999999999887e-04 2.168370795379264138e+00 1.410107087285021876e+00 1.645227917991491499e-04
-9.030000200000000632e+01 2.506299999999999972e+00 1.447311999999999932e+00 1.679969999999999977e-04 2.169039496529241440e+00 1.410680612733462347e+00 1.649433920395884515e-04
-9.020000199999999779e+01 2.503838000000000008e+00 1.452404999999999946e+00 1.689609999999999973e-04 2.169702364690617280e+00 1.411248206552312645e+00 1.653647475906444575e-04
-9.010000200000000348e+01 2.501348000000000127e+00 1.457357000000000014e+00 1.699120000000000090e-04 2.170359294793660965e+00 1.411809863730055348e+00 1.657868602927064453e-04
-9.000000199999999495e+01 2.499261000000000177e+00 1.462530000000000108e+00 1.708910000000000008e-04 2.171010180800045042e+00 1.412365580105025664e+00 1.662097320970868449e-04
-8.990000200000000063e+01 2.497341000000000033e+00 1.467624000000000040e+00 1.718649999999999952e-04 2.171654915701790145e+00 1.412915352383040002e+00 1.666333650692782085e-04
-8.980000200000000632e+01 2.495363999999999916e+00 1.473197000000000090e+00 1.728979999999999970e-04 2.172293391520394579e+00 1.413459178155229701e+00 1.670577613922720624e-04
-8.970000199999999779e+01 2.494313000000000002e+00 1.479592000000000018e+00 1.740289999999999968e-04 2.172925499306120223e+00 1.413997055916067502e+00 1.674829233699389884e-04
-8.960000200000000348e+01 2.494810999999999890e+00 1.485155999999999921e+00 1.750610000000000100e-04 2.173551129137549331e+00 1.414528985081599188e+00 1.679088534304721853e-04
-8.950000199999999495e+01 2.494899000000000200e+00 1.489595999999999920e+00 1.759650000000000135e-04 2.174170170121246137e+00 1.415054966007867066e+00 1.683355541298945648e-04
-8.940000200000000063e+01 2.494437000000000015e+00 1.494140000000000024e+00 1.768879999999999910e-04 2.174782510391740864e+00 1.415575000009534179e+00 1.687630281556292463e-04
-8.930000200000000632e+01 2.493987999999999872e+00 1.499211000000000071e+00 1.778759999999999890e-04 2.175388037111601669e+00 1.416089089378712806e+00 1.691912783301370278e-04
-8.920000199999999779e+01 2.493929000000000062e+00 1.504729999999999901e+00 1.789209999999999900e-04 2.175986636471852975e+00 1.416597237403983911e+00 1.696203076146182590e-04
-8.910000200000000348e+01 2.494854999999999823e+00 1.510939999999999950e+00 1.800469999999999924e-04 2.176578193692495056e+00 1.417099448389605776e+00 1.700501191127804163e-04
-8.900000199999999495e+01 2.497924999999999951e+00 1.515641999999999934e+00 1.809899999999999866e-04 2.177162593023353132e+00 1.417595727674930473e+00 1.704807160746748510e-04
-8.890000200000000063e+01 2.499216000000000104e+00 1.518744000000000094e+00 1.817520000000000040e-04 2.177739717745115655e+00 1.418086081654005959e+00 1.709121019005995369e-04
-8.880000200000000632e+01 2.500636000000000081e+00 1.523084000000000104e+00 1.826649999999999867e-04 2.178309450170568873e+00 1.418570517795402885e+00 1.713442801450753823e-04
